% Original filename: Decay 90Deg0002.mat
90 Deg Decay Run 2 2018-04-13
Time(s) Response(deg) LoadCell(N)
0.000000 9.776564 0.037557
0.020000 9.685917 0.044867
0.040000 9.587960 0.047906
0.060000 9.482817 0.045805
0.080000 9.370607 0.040022
0.100000 9.251451 0.042122
0.120000 9.125472 0.047191
0.140000 8.992789 0.040064
0.160000 8.853524 0.052443
0.180000 8.707798 0.038873
0.200000 8.555731 0.033860
0.220000 8.397446 0.039055
0.240000 8.233063 0.040806
0.260000 8.062704 0.038523
0.280000 7.886488 0.044727
0.300000 7.704538 0.034266
0.320000 7.516975 0.041044
0.340000 7.323919 0.040134
0.360000 7.125491 0.041828
0.380000 6.921814 0.037277
0.400000 6.713007 0.033272
0.420000 6.498774 0.039125
0.440000 6.279268 0.045469
0.460000 6.054383 0.040540
0.480000 5.825125 0.039896
0.500000 5.590921 0.041772
0.520000 5.352143 0.039447
0.540000 5.109544 0.039826
0.560000 4.862485 0.038173
0.580000 4.612264 0.042976
0.600000 4.357278 0.045399
0.620000 4.100065 0.039742
0.640000 3.839113 0.044139
0.660000 3.576675 0.043620
0.680000 3.310243 0.047107
0.700000 3.041606 0.039097
0.720000 2.770552 0.039517
0.740000 2.497796 0.039700
0.760000 2.223200 0.044349
0.780000 1.946578 0.041842
0.800000 1.668901 0.051490
0.820000 1.389782 0.043592
0.840000 1.109588 0.042374
0.860000 0.828690 0.044405
0.880000 0.548247 0.042248
0.900000 0.267065 0.035751
0.920000 -0.013952 0.044419
0.940000 -0.294384 0.034826
0.960000 -0.573545 0.034476
0.980000 -0.850784 0.038481
1.000000 -1.127663 0.042570
1.020000 -1.403067 0.045777
1.040000 -1.676870 0.040442
1.060000 -1.947912 0.042542
1.080000 -2.217626 0.046603
1.100000 -2.484093 0.040176
1.120000 -2.747313 0.041478
1.140000 -3.008515 0.041324
1.160000 -3.266627 0.046365
1.180000 -3.522859 0.047023
1.200000 -3.774681 0.044629
1.220000 -4.023385 0.039069
1.240000 -4.268650 0.040666
1.260000 -4.511398 0.035260
1.280000 -4.749104 0.041800
1.300000 -4.983171 0.044153
1.320000 -5.213324 0.040960
1.340000 -5.439342 0.047611
1.360000 -5.660807 0.043382
1.380000 -5.875875 0.042640
1.400000 -6.087265 0.036591
1.420000 -6.291564 0.044979
1.440000 -6.492012 0.044923
1.460000 -6.683790 0.038565
1.480000 -6.872005 0.041394
1.500000 -7.054313 0.046015
1.520000 -7.232044 0.043522
1.540000 -7.403357 0.043719
1.560000 -7.569602 0.036297
1.580000 -7.732406 0.033244
1.600000 -7.889412 0.042556
1.620000 -8.042114 0.042920
1.640000 -8.189432 0.042458
1.660000 -8.328693 0.040246
1.680000 -8.459546 0.041688
1.700000 -8.581385 0.046015
1.720000 -8.694227 0.034490
1.740000 -8.798357 0.034126
1.760000 -8.894595 0.041254
1.780000 -8.982741 0.040484
1.800000 -9.065043 0.040526
1.820000 -9.138587 0.039546
1.840000 -9.205576 0.037417
1.860000 -9.263757 0.042906
1.880000 -9.314431 0.034014
1.900000 -9.355431 0.033678
1.920000 -9.388663 0.040792
1.940000 -9.416318 0.041408
1.960000 -9.436752 0.047471
1.980000 -9.453039 0.043466
2.000000 -9.462860 0.045049
2.020000 -9.466915 0.046365
2.040000 -9.465011 0.048326
2.060000 -9.458118 0.039574
2.080000 -9.443303 0.043536
2.100000 -9.421417 0.045833
2.120000 -9.391470 0.045245
2.140000 -9.352346 0.047681
2.160000 -9.305970 0.047037
2.180000 -9.253407 0.054977
2.200000 -9.194560 0.043466
2.220000 -9.126904 0.045861
2.240000 -9.053055 0.044111
2.260000 -8.971761 0.045539
2.280000 -8.885334 0.051840
2.300000 -8.791391 0.043242
2.320000 -8.689837 0.044419
2.340000 -8.581765 0.044587
2.360000 -8.467091 0.049922
2.380000 -8.345762 0.046673
2.400000 -8.215408 0.041492
2.420000 -8.077700 0.041632
2.440000 -7.930061 0.043789
2.460000 -7.770576 0.046757
2.480000 -7.602091 0.041772
2.500000 -7.426304 0.046715
2.520000 -7.245384 0.043032
2.540000 -7.058827 0.042416
2.560000 -6.868738 0.047415
2.580000 -6.675592 0.038075
2.600000 -6.480959 0.041254
2.620000 -6.281828 0.045609
2.640000 -6.080474 0.042416
2.660000 -5.871719 0.042024
2.680000 -5.657462 0.041282
2.700000 -5.436611 0.038999
2.720000 -5.210931 0.051364
2.740000 -4.983129 0.040204
2.760000 -4.751792 0.046925
2.780000 -4.518921 0.041996
2.800000 -4.283322 0.048256
2.820000 -4.042017 0.039770
2.840000 -3.798893 0.032460
2.860000 -3.550682 0.038005
2.880000 -3.297576 0.043004
2.900000 -3.040240 0.043971
2.920000 -2.780481 0.045441
2.940000 -2.520432 0.041562
2.960000 -2.260314 0.044307
2.980000 -2.001230 0.034322
3.000000 -1.744917 0.038621
3.020000 -1.488496 0.039293
3.040000 -1.235109 0.033370
3.060000 -0.980470 0.041492
3.080000 -0.728900 0.048102
3.100000 -0.475525 0.041338
3.120000 -0.224409 0.039027
3.140000 0.026885 0.046393
3.160000 0.281829 0.047611
3.180000 0.531943 0.049530
3.200000 0.781783 0.049516
3.220000 1.027512 0.035947
3.240000 1.270584 0.040148
3.260000 1.512491 0.037641
3.280000 1.758070 0.044545
3.300000 1.994300 0.038089
3.320000 2.227094 0.039307
3.340000 2.458531 0.045021
3.360000 2.685842 0.046953
3.380000 2.913084 0.035989
3.400000 3.135481 0.039251
3.420000 3.359142 0.046211
3.440000 3.581172 0.041688
3.460000 3.810832 0.038607
3.480000 4.034620 0.052961
3.500000 4.263218 0.048270
3.520000 4.485818 0.048550
3.540000 4.703776 0.052037
3.560000 4.917739 0.039055
3.580000 5.129406 0.050454
3.600000 5.339031 0.048088
3.620000 5.549940 0.045595
3.640000 5.755320 0.047723
3.660000 5.953050 0.042920
3.680000 6.146861 0.043971
3.700000 6.339397 0.044139
3.720000 6.521278 0.040498
3.740000 6.691243 0.041478
3.760000 6.853633 0.040848
3.780000 7.010555 0.039153
3.800000 7.158156 0.045049
3.820000 7.300268 0.040372
3.840000 7.436471 0.045623
3.860000 7.568473 0.041688
3.880000 7.689360 0.040694
3.900000 7.805968 0.050748
3.920000 7.915380 0.040470
3.940000 8.019863 0.044097
3.960000 8.118094 0.049278
3.980000 8.200640 0.037669
4.000000 8.281327 0.033720
4.020000 8.353202 0.045203
4.040000 8.419426 0.043116
4.060000 8.480156 0.042248
4.080000 8.536211 0.045021
4.100000 8.578385 0.045973
4.120000 8.618406 0.048508
4.140000 8.647159 0.048830
4.160000 8.670765 0.048774
4.180000 8.690913 0.037697
4.200000 8.699807 0.047107
4.220000 8.702878 0.047093
4.240000 8.696084 0.048606
4.260000 8.688745 0.047387
4.280000 8.668446 0.050482
4.300000 8.646746 0.057386
4.320000 8.612841 0.047359
4.340000 8.572974 0.049054
4.360000 8.528885 0.037669
4.380000 8.477227 0.046393
4.400000 8.419496 0.041086
4.420000 8.359118 0.040904
4.440000 8.289010 0.043733
4.460000 8.210084 0.050062
4.480000 8.128055 0.048130
4.500000 8.041399 0.047765
4.520000 7.945540 0.046645
4.540000 7.845361 0.044363
4.560000 7.742175 0.049138
4.580000 7.630129 0.047934
4.600000 7.513034 0.053381
4.620000 7.392628 0.046939
4.640000 7.267088 0.042150
4.660000 7.137874 0.050244
4.680000 6.997954 0.044111
4.700000 6.859491 0.041562
4.720000 6.715106 0.043368
4.740000 6.567573 0.045385
4.760000 6.417542 0.046127
4.780000 6.258282 0.043789
4.800000 6.097271 0.047541
4.820000 5.933023 0.046323
4.840000 5.760523 0.041226
4.860000 5.588258 0.044587
4.880000 5.415559 0.040722
4.900000 5.237794 0.047597
4.920000 5.052959 0.046673
4.940000 4.864097 0.046085
4.960000 4.681849 0.041646
4.980000 4.492183 0.042738
5.000000 4.299074 0.049768
5.020000 4.102490 0.046253
5.040000 3.902913 0.038901
5.060000 3.706915 0.048088
5.080000 3.506679 0.041912
5.100000 3.306573 0.042486
5.120000 3.102621 0.039756
5.140000 2.895446 0.042444
5.160000 2.689266 0.046757
5.180000 2.481070 0.040218
5.200000 2.276276 0.044475
5.220000 2.069950 0.052037
5.240000 1.859579 0.047051
5.260000 1.646854 0.042528
5.280000 1.437341 0.049670
5.300000 1.229544 0.039826
5.320000 1.020730 0.041086
5.340000 0.810040 0.038369
5.360000 0.596739 0.040960
5.380000 0.387664 0.036857
5.400000 0.182689 0.044265
5.420000 -0.023430 0.036689
5.440000 -0.225881 0.040512
5.460000 -0.422547 0.035513
5.480000 -0.614063 0.043186
5.500000 -0.788272 0.042976
5.520000 -0.963488 0.035274
5.540000 -1.139509 0.025724
5.560000 -1.314983 0.028875
5.580000 -1.510832 0.037137
5.600000 -1.736105 0.033888
5.620000 -1.962695 0.037851
5.640000 -2.193255 0.044461
5.660000 -2.416226 0.035681
5.680000 -2.632432 0.042430
5.700000 -2.838535 0.042402
5.720000 -3.040265 0.036227
5.740000 -3.235233 0.040176
5.760000 -3.417494 0.025752
5.780000 -3.596521 0.039602
5.800000 -3.764494 0.041660
5.820000 -3.932416 0.043158
5.840000 -4.096563 0.033244
5.860000 -4.239221 0.037333
5.880000 -4.385681 0.048886
5.900000 -4.525344 0.044825
5.920000 -4.658331 0.049992
5.940000 -4.780580 0.046827
5.960000 -4.893584 0.045371
5.980000 -5.007003 0.035387
6.000000 -5.112842 0.041618
6.020000 -5.214471 0.039321
6.040000 -5.306066 0.043326
6.060000 -5.392539 0.039335
6.080000 -5.469657 0.040792
6.100000 -5.538306 0.042402
6.120000 -5.597443 0.044825
6.140000 -5.658094 0.037711
6.160000 -5.711350 0.037851
6.180000 -5.749458 0.041660
6.200000 -5.778688 0.042402
6.220000 -5.804460 0.044195
6.240000 -5.818143 0.027741
6.260000 -5.819125 0.033888
6.280000 -5.825633 0.037123
6.300000 -5.830682 0.042430
6.320000 -5.859973 0.045553
6.340000 -5.891530 0.038859
6.360000 -5.928258 0.038957
6.380000 -5.980293 0.038005
6.400000 -6.028703 0.042864
6.420000 -6.043183 0.042612
6.440000 -6.043988 0.046771
6.460000 -6.035859 0.041492
6.480000 -6.019966 0.042388
6.500000 -5.965245 0.039307
6.520000 -5.904119 0.042024
6.540000 -5.857013 0.041086
6.560000 -5.812833 0.041450
6.580000 -5.777037 0.037823
6.600000 -5.752749 0.040848
6.620000 -5.740914 0.040106
6.640000 -5.727967 0.045049
6.660000 -5.706860 0.037263
6.680000 -5.690510 0.040876
6.700000 -5.659301 0.045539
6.720000 -5.624420 0.047135
6.740000 -5.585195 0.045553
6.760000 -5.539555 0.043116
6.780000 -5.488410 0.039994
6.800000 -5.427850 0.039139
6.820000 -5.362433 0.035863
6.840000 -5.287745 0.045413
6.860000 -5.210493 0.045595
6.880000 -5.126586 0.051602
6.900000 -5.035672 0.041744
6.920000 -4.940689 0.036073
6.940000 -4.841075 0.044209
6.960000 -4.728554 0.038621
6.980000 -4.606829 0.039910
7.000000 -4.484106 0.041408
7.020000 -4.360243 0.039097
7.040000 -4.221975 0.042276
7.060000 -4.082331 0.048228
7.080000 -3.944925 0.046771
7.100000 -3.791030 0.041548
7.120000 -3.638810 0.033090
7.140000 -3.472826 0.042318
7.160000 -3.308580 0.043957
7.180000 -3.138727 0.043102
7.200000 -2.963748 0.040344
7.220000 -2.781974 0.033776
7.240000 -2.594776 0.045161
7.260000 -2.402573 0.043691
7.280000 -2.204787 0.046547
7.300000 -2.002227 0.044797
7.320000 -1.837707 0.044223
7.340000 -1.697600 0.050902
7.360000 -1.557924 0.040092
7.380000 -1.422220 0.042542
7.400000 -1.289525 0.040302
7.420000 -1.150843 0.040344
7.440000 -1.004657 0.045245
7.460000 -0.851605 0.048144
7.480000 -0.694109 0.040428
7.500000 -0.536170 0.049502
7.520000 -0.379602 0.051406
7.540000 -0.222369 0.041814
7.560000 -0.061629 0.040414
7.580000 0.096980 0.040414
7.600000 0.252635 0.040134
7.620000 0.406026 0.037809
7.640000 0.559745 0.039560
7.660000 0.715918 0.032516
7.680000 0.870924 0.030695
7.700000 1.022321 0.038691
7.720000 1.170437 0.044293
7.740000 1.319898 0.042668
7.760000 1.467024 0.044489
7.780000 1.608476 0.042136
7.800000 1.749480 0.039237
7.820000 1.889017 0.048620
7.840000 2.029716 0.043859
7.860000 2.163899 0.040820
7.880000 2.295049 0.050538
7.900000 2.425197 0.039391
7.920000 2.551824 0.035961
7.940000 2.673323 0.045371
7.960000 2.792637 0.040946
7.980000 2.910734 0.034952
8.000000 3.026443 0.036731
8.020000 3.141698 0.039307
8.040000 3.255503 0.039405
8.060000 3.360932 0.043592
8.080000 3.460868 0.031620
8.100000 3.556798 0.045021
8.120000 3.651803 0.037977
8.140000 3.743299 0.042024
8.160000 3.830239 0.036941
8.180000 3.913362 0.038215
8.200000 3.992744 0.037585
8.220000 4.068003 0.037011
8.240000 4.142143 0.036871
8.260000 4.215358 0.039560
8.280000 4.284254 0.036199
8.300000 4.349945 0.034350
8.320000 4.413201 0.036773
8.340000 4.472754 0.041072
8.360000 4.527302 0.036535
8.380000 4.577605 0.037655
8.400000 4.621517 0.032376
8.420000 4.665892 0.040008
8.440000 4.707463 0.039391
8.460000 4.742569 0.026676
8.480000 4.772610 0.029729
8.500000 4.798358 0.035345
8.520000 4.821079 0.034742
8.540000 4.840516 0.034574
8.560000 4.854549 0.038187
8.580000 4.863991 0.028063
8.600000 4.875015 0.036269
8.620000 4.879048 0.037277
8.640000 4.878378 0.030051
8.660000 4.872855 0.031956
8.680000 4.861291 0.033440
8.700000 4.850230 0.033566
8.720000 4.835766 0.038075
8.740000 4.814048 0.045721
8.760000 4.791452 0.038649
8.780000 4.759341 0.036115
8.800000 4.724612 0.035316
8.820000 4.693403 0.035751
8.840000 4.654542 0.040946
8.860000 4.607593 0.039237
8.880000 4.559038 0.035765
8.900000 4.509615 0.032740
8.920000 4.458913 0.039531
8.940000 4.399091 0.033006
8.960000 4.336679 0.039405
8.980000 4.273004 0.038929
9.000000 4.210229 0.039069
9.020000 4.145022 0.039265
9.040000 4.075812 0.040260
9.060000 4.001626 0.036745
9.080000 3.924490 0.034070
9.100000 3.844268 0.032222
9.120000 3.759359 0.037165
9.140000 3.671470 0.039223
9.160000 3.585333 0.045623
9.180000 3.497720 0.040862
9.200000 3.405646 0.035457
9.220000 3.311069 0.037907
9.240000 3.209160 0.037683
9.260000 3.106696 0.033216
9.280000 3.004421 0.037683
9.300000 2.897607 0.041268
9.320000 2.790164 0.042066
9.340000 2.682013 0.034854
9.360000 2.573917 0.039896
9.380000 2.464567 0.038509
9.400000 2.354982 0.034616
9.420000 2.239399 0.043606
9.440000 2.120672 0.038565
9.460000 2.001430 0.036535
9.480000 1.880952 0.037193
9.500000 1.765095 0.032558
9.520000 1.648895 0.034182
9.540000 1.528147 0.036255
9.560000 1.405175 0.037333
9.580000 1.278811 0.036465
9.600000 1.158768 0.028189
9.620000 1.040858 0.040708
9.640000 0.915646 0.032432
9.660000 0.787815 0.029757
9.680000 0.661795 0.036395
9.700000 0.537105 0.040092
9.720000 0.416488 0.047247
9.740000 0.293798 0.048466
9.760000 0.171792 0.044671
9.780000 0.047079 0.037039
9.800000 -0.078263 0.036773
9.820000 -0.202901 0.040134
9.840000 -0.326780 0.038677
9.860000 -0.451033 0.040442
9.880000 -0.570642 0.039321
9.900000 -0.691035 0.037963
9.920000 -0.810947 0.044769
9.940000 -0.925807 0.040820
9.960000 -1.039681 0.038943
9.980000 -1.155764 0.036507
10.000000 -1.271756 0.041128
10.020000 -1.388680 0.041856
10.040000 -1.500623 0.039097
10.060000 -1.606280 0.038999
10.080000 -1.710139 0.039055
10.100000 -1.811101 0.038873
10.120000 -1.914202 0.030891
10.140000 -2.014412 0.041128
10.160000 -2.109435 0.035036
10.180000 -2.202471 0.040652
10.200000 -2.295812 0.036493
10.220000 -2.386427 0.036941
10.240000 -2.471003 0.033608
10.260000 -2.553680 0.042374
10.280000 -2.632280 0.032502
10.300000 -2.708424 0.035989
10.320000 -2.783189 0.033902
10.340000 -2.856888 0.039041
10.360000 -2.925067 0.046225
10.380000 -2.989618 0.035555
10.400000 -3.049170 0.042864
10.420000 -3.108237 0.034938
10.440000 -3.170006 0.042640
10.460000 -3.228856 0.032544
10.480000 -3.286207 0.039924
10.500000 -3.335443 0.039644
10.520000 -3.378801 0.038383
10.540000 -3.423421 0.048970
10.560000 -3.466292 0.041338
10.580000 -3.504926 0.045287
10.600000 -3.542315 0.041282
10.620000 -3.572761 0.040414
10.640000 -3.598160 0.039798
10.660000 -3.623353 0.037263
10.680000 -3.643948 0.040442
10.700000 -3.663055 0.033370
10.720000 -3.675893 0.036339
10.740000 -3.686703 0.038411
10.760000 -3.694894 0.043943
10.780000 -3.699157 0.042192
10.800000 -3.701476 0.044867
10.820000 -3.699624 0.036857
10.840000 -3.695011 0.043410
10.860000 -3.684519 0.037319
10.880000 -3.672932 0.049950
10.900000 -3.659582 0.039672
10.920000 -3.647327 0.042080
10.940000 -3.624355 0.038145
10.960000 -3.600155 0.042710
10.980000 -3.572498 0.037375
11.000000 -3.543072 0.036507
11.020000 -3.510690 0.042010
11.040000 -3.475965 0.044475
11.060000 -3.438394 0.039349
11.080000 -3.393804 0.045119
11.100000 -3.348952 0.045623
11.120000 -3.300989 0.045595
11.140000 -3.251460 0.041814
11.160000 -3.203174 0.041800
11.180000 -3.149933 0.037165
11.200000 -3.092608 0.033104
11.220000 -3.037619 0.039644
11.240000 -2.979761 0.039896
11.260000 -2.918653 0.035709
11.280000 -2.854668 0.038817
11.300000 -2.785450 0.035106
11.320000 -2.712493 0.042920
11.340000 -2.641088 0.043803
11.360000 -2.567196 0.037487
11.380000 -2.490103 0.041898
11.400000 -2.411453 0.048970
11.420000 -2.328692 0.033846
11.440000 -2.246577 0.040246
11.460000 -2.160508 0.041758
11.480000 -2.073475 0.041086
11.500000 -1.986588 0.039097
11.520000 -1.899682 0.033930
11.540000 -1.811314 0.036395
11.560000 -1.717426 0.040750
11.580000 -1.622892 0.039980
11.600000 -1.530041 0.036241
11.620000 -1.437651 0.039209
11.640000 -1.344318 0.042164
11.660000 -1.241109 0.034224
11.680000 -1.146456 0.031494
11.700000 -1.053098 0.045273
11.720000 -0.953466 0.039784
11.740000 -0.850317 0.038075
11.760000 -0.754018 0.035457
11.780000 -0.651410 0.038075
11.800000 -0.553387 0.034840
11.820000 -0.453863 0.045091
11.840000 -0.352943 0.040106
11.860000 -0.251948 0.037123
11.880000 -0.149717 0.050174
11.900000 -0.051172 0.041464
11.920000 0.044573 0.039770
11.940000 0.144795 0.038033
11.960000 0.241131 0.041156
11.980000 0.342639 0.040540
12.000000 0.439361 0.042374
12.020000 0.533294 0.029687
12.040000 0.632695 0.037417
12.060000 0.729012 0.047471
12.080000 0.824436 0.042444
12.100000 0.917785 0.039237
12.120000 1.012115 0.043046
12.140000 1.103803 0.039560
12.160000 1.195677 0.041926
12.180000 1.284264 0.045875
12.200000 1.372318 0.039321
12.220000 1.458520 0.043382
12.240000 1.546925 0.041338
12.260000 1.635772 0.036969
12.280000 1.714220 0.037487
12.300000 1.796333 0.033748
12.320000 1.878452 0.043018
12.340000 1.958471 0.038131
12.360000 2.034368 0.045273
12.380000 2.109256 0.037053
12.400000 2.182212 0.034756
12.420000 2.254197 0.041464
12.440000 2.326008 0.037249
12.460000 2.394171 0.043719
12.480000 2.452201 0.039840
12.500000 2.514882 0.036941
12.520000 2.576903 0.032334
12.540000 2.635351 0.042318
12.560000 2.690231 0.041058
12.580000 2.747262 0.038733
12.600000 2.799043 0.037627
12.620000 2.849468 0.039111
12.640000 2.896079 0.044923
12.660000 2.941416 0.042178
12.680000 2.986691 0.028609
12.700000 3.027297 0.034574
12.720000 3.066407 0.041940
12.740000 3.105250 0.037165
12.760000 3.132305 0.025276
12.780000 3.161869 0.030051
12.800000 3.187594 0.042332
12.820000 3.212190 0.030317
12.840000 3.235160 0.042766
12.860000 3.249954 0.038411
12.880000 3.264235 0.036101
12.900000 3.277569 0.032628
12.920000 3.285945 0.042276
12.940000 3.291135 0.035667
12.960000 3.293025 0.039489
12.980000 3.294115 0.029631
13.000000 3.293151 0.036297
13.020000 3.287930 0.037627
13.040000 3.280762 0.033902
13.060000 3.269251 0.038887
13.080000 3.253691 0.032432
13.100000 3.239961 0.036717
13.120000 3.222211 0.035849
13.140000 3.201851 0.032236
13.160000 3.175601 0.038201
13.180000 3.151025 0.044097
13.200000 3.119681 0.034364
13.220000 3.087333 0.037221
13.240000 3.050069 0.034182
13.260000 3.013964 0.032908
13.280000 2.977436 0.034980
13.300000 2.938583 0.031171
13.320000 2.897840 0.034994
13.340000 2.855863 0.037347
13.360000 2.813142 0.038117
13.380000 2.768627 0.038411
13.400000 2.719850 0.033692
13.420000 2.667227 0.039714
13.440000 2.618868 0.036703
13.460000 2.568702 0.037011
13.480000 2.514449 0.033678
13.500000 2.456909 0.033748
13.520000 2.393893 0.034826
13.540000 2.329471 0.030989
13.560000 2.267355 0.027811
13.580000 2.201883 0.026592
13.600000 2.137147 0.038047
13.620000 2.071192 0.031536
13.640000 1.998599 0.026620
13.660000 1.925577 0.035316
13.680000 1.854196 0.035022
13.700000 1.780031 0.039574
13.720000 1.703613 0.039041
13.740000 1.627319 0.034210
13.760000 1.553857 0.035092
13.780000 1.473586 0.037921
13.800000 1.394517 0.037375
13.820000 1.314874 0.032572
13.840000 1.232600 0.038677
13.860000 1.153628 0.036997
13.880000 1.070058 0.031998
13.900000 0.987693 0.040456
13.920000 0.906326 0.037585
13.940000 0.821696 0.039405
13.960000 0.734537 0.034378
13.980000 0.652310 0.033832
14.000000 0.564730 0.033986
14.020000 0.482434 0.036213
14.040000 0.397784 0.033706
14.060000 0.312165 0.033790
14.080000 0.227378 0.036815
14.100000 0.139105 0.033398
14.120000 0.056984 0.039195
14.140000 -0.030612 0.031045
14.160000 -0.112922 0.029967
14.180000 -0.200728 0.037123
14.200000 -0.289059 0.035345
14.220000 -0.374082 0.027671
14.240000 -0.454707 0.035597
14.260000 -0.537570 0.031816
14.280000 -0.622304 0.036017
14.300000 -0.703599 0.040596
