% Original filename: Decay 90Deg Spring0006.mat
90 Deg Decay Spring Run 1 2018-04-13
Time(s) Response(deg) LoadCell(N)
0.000000 -0.339737 0.081668
0.020000 -0.330290 0.077845
0.040000 -0.317181 0.073420
0.060000 -0.300585 0.074876
0.080000 -0.280674 0.070087
0.100000 -0.257624 0.073700
0.120000 -0.231608 0.079609
0.140000 -0.202800 0.072551
0.160000 -0.171375 0.078755
0.180000 -0.137505 0.077495
0.200000 -0.101366 0.077369
0.220000 -0.063131 0.079301
0.240000 -0.022974 0.073294
0.260000 0.018931 0.073518
0.280000 0.062410 0.075016
0.300000 0.107288 0.074134
0.320000 0.153393 0.076304
0.340000 0.200549 0.078181
0.360000 0.248583 0.078363
0.380000 0.297321 0.074008
0.400000 0.346589 0.068883
0.420000 0.395813 0.078405
0.440000 0.446575 0.075058
0.460000 0.497537 0.074582
0.480000 0.547075 0.071277
0.500000 0.597948 0.077145
0.520000 0.647784 0.075212
0.540000 0.695622 0.086849
0.560000 0.744263 0.074176
0.580000 0.790798 0.079259
0.600000 0.834842 0.077929
0.620000 0.878587 0.078699
0.640000 0.919336 0.083068
0.660000 0.957148 0.088277
0.680000 0.993914 0.077929
0.700000 1.027186 0.078153
0.720000 1.057264 0.076668
0.740000 1.085872 0.074022
0.760000 1.110497 0.074428
0.780000 1.131817 0.084440
0.800000 1.150608 0.079987
0.820000 1.164499 0.075114
0.840000 1.174887 0.080253
0.860000 1.181392 0.083376
0.880000 1.183082 0.077803
0.900000 1.181259 0.079175
0.920000 1.174153 0.072285
0.940000 1.162328 0.079427
0.960000 1.146955 0.079441
0.980000 1.125686 0.072523
1.000000 1.099712 0.083670
1.020000 1.070865 0.075366
1.040000 1.035678 0.075324
1.060000 0.994743 0.070955
1.080000 0.951696 0.075534
1.100000 0.901579 0.075478
1.120000 0.845214 0.072201
1.140000 0.788403 0.072523
1.160000 0.723693 0.070927
1.180000 0.654106 0.076486
1.200000 0.584774 0.078083
1.220000 0.507110 0.073196
1.240000 0.427193 0.074302
1.260000 0.346259 0.073770
1.280000 0.258157 0.072271
1.300000 0.170178 0.068673
1.320000 0.081652 0.067454
1.340000 -0.010332 0.065508
1.360000 -0.100804 0.075100
1.380000 -0.192937 0.063631
1.400000 -0.288524 0.071627
1.420000 -0.382482 0.081037
1.440000 -0.478159 0.074414
1.460000 -0.575158 0.069583
1.480000 -0.670324 0.063561
1.500000 -0.769299 0.070143
1.520000 -0.866048 0.077159
1.540000 -0.959084 0.081164
1.560000 -1.055779 0.073126
1.580000 -1.144597 0.065242
1.600000 -1.229269 0.066866
1.620000 -1.316624 0.067762
1.640000 -1.391530 0.065060
1.660000 -1.461654 0.074652
1.680000 -1.532909 0.073532
1.700000 -1.595171 0.067426
1.720000 -1.651992 0.063351
1.740000 -1.706107 0.066138
1.760000 -1.750476 0.073266
1.780000 -1.782409 0.071515
1.800000 -1.811439 0.070787
1.820000 -1.831524 0.067762
1.840000 -1.838608 0.065410
1.860000 -1.847951 0.065536
1.880000 -1.842220 0.066054
1.900000 -1.825097 0.075156
1.920000 -1.804271 0.069597
1.940000 -1.764405 0.067398
1.960000 -1.723154 0.068757
1.980000 -1.674109 0.064486
2.000000 -1.609590 0.074442
2.020000 -1.544446 0.066348
2.040000 -1.472358 0.055579
2.060000 -1.392495 0.064247
2.080000 -1.314297 0.064962
2.100000 -1.219774 0.071949
2.120000 -1.114636 0.073308
2.140000 -1.010911 0.067538
2.160000 -0.887874 0.072145
2.180000 -0.761629 0.068490
2.200000 -0.629701 0.076388
2.220000 -0.453071 0.065830
2.240000 -0.271942 0.072425
2.260000 -0.104471 0.080715
2.280000 0.086932 0.076836
2.300000 0.261405 0.074988
2.320000 0.436719 0.078363
2.340000 0.642715 0.072958
2.360000 0.822410 0.074204
2.380000 1.012736 0.075730
2.400000 1.204070 0.066208
2.420000 1.394254 0.076738
2.440000 1.590051 0.069695
2.460000 1.766886 0.063673
2.480000 1.947166 0.075730
2.500000 2.119461 0.068785
2.520000 2.289793 0.074288
2.540000 2.465599 0.068715
2.560000 2.631194 0.071109
2.580000 2.802851 0.074274
2.600000 2.950803 0.066614
2.620000 3.090841 0.070955
2.640000 3.227929 0.070157
2.660000 3.344489 0.076430
2.680000 3.470772 0.069667
2.700000 3.577310 0.067412
2.720000 3.673606 0.067580
2.740000 3.765778 0.065662
2.760000 3.835951 0.076066
2.780000 3.893549 0.069457
2.800000 4.020319 0.080323
2.820000 4.106541 0.074414
2.840000 4.170453 0.067818
2.860000 4.213843 0.069765
2.880000 4.236298 0.068448
2.900000 4.254501 0.069891
2.920000 4.251681 0.071893
2.940000 4.222843 0.067160
2.960000 4.176418 0.072705
2.980000 4.111530 0.078573
3.000000 3.950170 0.080029
3.020000 3.811528 0.071095
3.040000 3.652982 0.064906
3.060000 3.501358 0.068953
3.080000 3.361240 0.070185
3.100000 3.193021 0.066236
3.120000 3.039076 0.062987
3.140000 2.894979 0.073350
3.160000 2.700054 0.072159
3.180000 2.511745 0.071711
3.200000 2.300470 0.072355
3.220000 2.060031 0.074106
3.240000 1.850226 0.064892
3.260000 1.618780 0.072495
3.280000 1.365194 0.077257
3.300000 1.096473 0.064023
3.320000 0.830616 0.076192
3.340000 0.549898 0.082830
3.360000 0.280530 0.071319
3.380000 0.030231 0.075240
3.400000 -0.274427 0.074722
3.420000 -0.568190 0.073084
3.440000 -0.849628 0.074722
3.460000 -1.110885 0.076444
3.480000 -1.359262 0.076290
3.500000 -1.623514 0.072089
3.520000 -1.857150 0.072607
3.540000 -2.063983 0.072551
3.560000 -2.231305 0.078125
3.580000 -2.358183 0.080085
3.600000 -2.447227 0.072075
3.620000 -2.592008 0.078601
3.640000 -2.712072 0.070843
3.660000 -2.773401 0.069793
3.680000 -2.780597 0.068546
3.700000 -2.777332 0.067776
3.720000 -2.761594 0.067020
3.740000 -2.735025 0.065242
3.760000 -2.701663 0.072243
3.780000 -2.655490 0.073686
3.800000 -2.605137 0.066460
3.820000 -2.436464 0.073756
3.840000 -2.255105 0.070507
3.860000 -2.072861 0.069877
3.880000 -1.885333 0.067818
3.900000 -1.688109 0.068252
3.920000 -1.482786 0.069513
3.940000 -1.278689 0.064654
3.960000 -1.085802 0.069275
3.980000 -0.891719 0.074204
4.000000 -0.700456 0.071795
4.020000 -0.506006 0.077047
4.040000 -0.299310 0.074778
4.060000 -0.141379 0.073588
4.080000 0.009622 0.075268
4.100000 0.168319 0.076178
4.120000 0.316745 0.072691
4.140000 0.459062 0.073588
4.160000 0.595603 0.076066
4.180000 0.687259 0.070661
4.200000 0.738914 0.069177
4.220000 0.813794 0.070087
4.240000 0.880786 0.063435
4.260000 0.942960 0.060453
4.280000 0.983976 0.069037
4.300000 1.017977 0.070339
4.320000 1.078245 0.064920
4.340000 1.134409 0.066054
4.360000 1.195531 0.076640
4.380000 1.251907 0.076977
4.400000 1.307459 0.072145
4.420000 1.373188 0.073042
4.440000 1.449970 0.072846
4.460000 1.550161 0.074694
4.480000 1.620324 0.069527
4.500000 1.650717 0.074736
4.520000 1.674545 0.073924
4.540000 1.676020 0.078083
4.560000 1.657080 0.076794
4.580000 1.636882 0.076486
4.600000 1.605932 0.076472
4.620000 1.568263 0.063127
4.640000 1.519124 0.064401
4.660000 1.455959 0.067272
4.680000 1.343606 0.066894
4.700000 1.199353 0.067412
4.720000 1.068778 0.074274
4.740000 0.953519 0.076794
4.760000 0.852355 0.069933
4.780000 0.770347 0.067552
4.800000 0.701221 0.069373
4.820000 0.642048 0.070563
4.840000 0.587513 0.070927
4.860000 0.538683 0.073728
4.880000 0.492292 0.073392
4.900000 0.442968 0.067188
4.920000 0.396959 0.063813
4.940000 0.354019 0.066348
4.960000 0.313766 0.061531
4.980000 0.274751 0.068154
5.000000 0.240362 0.070339
5.020000 0.215970 0.059486
5.040000 0.189435 0.071235
5.060000 0.158181 0.065676
5.080000 0.124466 0.070059
5.100000 0.093443 0.064233
5.120000 0.075791 0.067034
5.140000 0.059349 0.070479
5.160000 0.052995 0.063519
5.180000 0.055469 0.071487
5.200000 0.095340 0.071795
5.220000 0.172844 0.069849
5.240000 0.236523 0.072019
5.260000 0.292878 0.065396
5.280000 0.333576 0.067160
5.300000 0.369562 0.069947
5.320000 0.398784 0.072846
5.340000 0.412637 0.081738
5.360000 0.423205 0.067874
5.380000 0.418280 0.072789
5.400000 0.393585 0.068294
5.420000 0.357094 0.069247
5.440000 0.306808 0.071207
5.460000 0.237083 0.068392
5.480000 0.154306 0.065214
5.500000 0.125708 0.060453
5.520000 0.135480 0.071151
5.540000 0.154221 0.070087
5.560000 0.174177 0.067174
5.580000 0.192532 0.075324
5.600000 0.200523 0.069387
5.620000 0.208265 0.063897
5.640000 0.214917 0.061657
5.660000 0.219854 0.069303
5.680000 0.223234 0.066796
5.700000 0.225580 0.072243
5.720000 0.230712 0.068392
5.740000 0.232878 0.064107
5.760000 0.238928 0.068981
5.780000 0.240907 0.063015
5.800000 0.250119 0.060901
5.820000 0.265968 0.063099
5.840000 0.277782 0.069905
5.860000 0.297867 0.060999
5.880000 0.335303 0.067076
5.900000 0.388170 0.057862
5.920000 0.445482 0.063659
5.940000 0.512489 0.073322
5.960000 0.593085 0.070143
5.980000 0.686147 0.073602
6.000000 0.790681 0.071739
6.020000 0.869809 0.068252
6.040000 0.902474 0.069135
6.060000 0.933483 0.067370
6.080000 0.959878 0.063197
6.100000 0.979928 0.073392
6.120000 0.988674 0.065298
6.140000 0.984744 0.062651
6.160000 0.984153 0.066586
6.180000 0.966753 0.066236
6.200000 0.949797 0.062385
6.220000 0.921522 0.073028
6.240000 0.893605 0.075660
6.260000 0.853572 0.064093
6.280000 0.811885 0.071361
6.300000 0.770225 0.069877
6.320000 0.715852 0.073056
6.340000 0.668563 0.067440
6.360000 0.606671 0.069933
6.380000 0.545859 0.072789
6.400000 0.485590 0.068925
6.420000 0.422800 0.071291
6.440000 0.318565 0.064037
6.460000 0.195149 0.067916
6.480000 0.091364 0.075114
6.500000 -0.016374 0.073224
6.520000 -0.112859 0.064934
6.540000 -0.192905 0.068644
6.560000 -0.257795 0.073224
6.580000 -0.304501 0.074484
6.600000 -0.314308 0.068743
6.620000 -0.264105 0.069863
6.640000 -0.223310 0.071291
6.660000 -0.177287 0.075674
6.680000 -0.134766 0.076164
6.700000 -0.101766 0.069149
6.720000 -0.070050 0.063197
6.740000 -0.033439 0.066964
6.760000 -0.011356 0.071053
6.780000 0.007991 0.067356
6.800000 0.022576 0.075240
6.820000 0.033027 0.072467
6.840000 0.044546 0.061601
6.860000 0.052050 0.064261
6.880000 0.058499 0.074330
6.900000 0.065986 0.066936
6.920000 0.067085 0.074708
6.940000 0.072600 0.067790
6.960000 0.074510 0.068238
6.980000 0.065621 0.069289
7.000000 0.056071 0.076178
7.020000 0.039434 0.067160
7.040000 0.028787 0.067538
7.060000 0.012164 0.066600
7.080000 -0.004491 0.067104
7.100000 -0.026913 0.067720
7.120000 -0.057064 0.066726
7.140000 -0.091337 0.063155
7.160000 -0.138091 0.062385
7.180000 -0.175100 0.061307
7.200000 -0.225555 0.065844
7.220000 -0.281657 0.072453
7.240000 -0.347088 0.070101
7.260000 -0.373243 0.070479
7.280000 -0.370840 0.067986
7.300000 -0.368959 0.064752
7.320000 -0.333691 0.068182
7.340000 -0.279972 0.074218
7.360000 -0.211046 0.066698
7.380000 -0.116431 0.064724
7.400000 -0.000586 0.062231
7.420000 0.112305 0.060383
7.440000 0.167108 0.067258
7.460000 0.220065 0.063799
7.480000 0.270228 0.063337
7.500000 0.311669 0.064766
7.520000 0.353102 0.070591
7.540000 0.391362 0.070381
7.560000 0.423433 0.063673
7.580000 0.451055 0.067524
7.600000 0.475402 0.068140
7.620000 0.504723 0.068616
7.640000 0.530499 0.065060
7.660000 0.543163 0.070773
7.680000 0.555875 0.067496
7.700000 0.565679 0.072005
7.720000 0.567148 0.066950
7.740000 0.575447 0.068378
7.760000 0.574818 0.071879
7.780000 0.565239 0.070661
7.800000 0.551868 0.070227
7.820000 0.533747 0.072705
7.840000 0.521502 0.070437
7.860000 0.494724 0.068518
7.880000 0.466325 0.064472
7.900000 0.436258 0.066838
7.920000 0.403018 0.073742
7.940000 0.368081 0.073462
7.960000 0.339229 0.066110
7.980000 0.306259 0.059724
8.000000 0.261524 0.065858
8.020000 0.217751 0.067006
8.040000 0.175208 0.081093
8.060000 0.135623 0.069429
8.080000 0.091013 0.068294
8.100000 0.049160 0.062931
8.120000 0.008945 0.063197
8.140000 -0.034190 0.072089
8.160000 -0.073959 0.057652
8.180000 -0.108715 0.063813
8.200000 -0.143820 0.065312
8.220000 -0.180908 0.063183
8.240000 -0.222005 0.068280
8.260000 -0.260812 0.059780
8.280000 -0.296443 0.060046
8.300000 -0.332145 0.066376
8.320000 -0.359003 0.067454
8.340000 -0.384542 0.059318
8.360000 -0.413560 0.063323
8.380000 -0.440397 0.068855
8.400000 -0.452969 0.063449
8.420000 -0.459350 0.059864
8.440000 -0.467164 0.061769
8.460000 -0.479807 0.065102
8.480000 -0.486699 0.069023
8.500000 -0.484304 0.070199
8.520000 -0.483356 0.066082
8.540000 -0.479289 0.064794
8.560000 -0.477295 0.062189
8.580000 -0.474623 0.068490
8.600000 -0.467010 0.062861
8.620000 -0.454962 0.062189
8.640000 -0.436611 0.066068
8.660000 -0.424439 0.071487
8.680000 -0.400124 0.074890
8.700000 -0.377330 0.074414
8.720000 -0.353800 0.068294
8.740000 -0.327056 0.060284
8.760000 -0.296800 0.066166
8.780000 -0.271822 0.055817
8.800000 -0.241316 0.068056
8.820000 -0.205779 0.062469
8.840000 -0.167531 0.068981
8.860000 -0.131223 0.062707
8.880000 -0.095889 0.061223
8.900000 -0.062113 0.062623
8.920000 -0.027287 0.071123
8.940000 0.005885 0.066488
8.960000 0.037587 0.067538
8.980000 0.062703 0.066306
9.000000 0.084587 0.068294
9.020000 0.108760 0.060144
9.040000 0.127562 0.062455
9.060000 0.145350 0.061111
9.080000 0.167056 0.065746
9.100000 0.190836 0.070605
9.120000 0.212427 0.070661
9.140000 0.228442 0.071207
9.160000 0.244642 0.074008
9.180000 0.258776 0.070521
9.200000 0.274701 0.066922
9.220000 0.289184 0.064331
9.240000 0.295084 0.068715
9.260000 0.296271 0.067426
9.280000 0.299343 0.061027
9.300000 0.304122 0.060439
9.320000 0.299652 0.070913
9.340000 0.297039 0.062371
9.360000 0.292278 0.072383
9.380000 0.288698 0.069611
9.400000 0.275154 0.066558
9.420000 0.261588 0.070913
9.440000 0.252846 0.073896
9.460000 0.240893 0.068070
9.480000 0.227588 0.065690
9.500000 0.214077 0.065816
9.520000 0.198226 0.069709
9.540000 0.179489 0.067048
9.560000 0.154764 0.074274
9.580000 0.128576 0.058352
9.600000 0.106598 0.068644
9.620000 0.086814 0.071837
9.640000 0.066538 0.069947
9.660000 0.044245 0.069597
9.680000 0.014799 0.057526
9.700000 -0.013561 0.064472
9.720000 -0.037007 0.069387
9.740000 -0.066229 0.069863
9.760000 -0.103220 0.074022
9.780000 -0.148553 0.067930
9.800000 -0.197244 0.068841
9.820000 -0.174592 0.067188
9.840000 -0.173204 0.066278
9.860000 -0.171983 0.061587
9.880000 -0.170115 0.063981
9.900000 -0.172243 0.064233
9.920000 -0.177377 0.067636
9.940000 -0.184489 0.070913
9.960000 -0.187332 0.071627
9.980000 -0.187030 0.067664
10.000000 -0.181065 0.073014
10.020000 -0.173385 0.069499
10.040000 -0.170749 0.070297
10.060000 -0.170300 0.063813
10.080000 -0.168992 0.068532
10.100000 -0.161939 0.069947
10.120000 -0.155928 0.070325
10.140000 -0.150866 0.066824
10.160000 -0.143983 0.068687
10.180000 -0.136139 0.062035
10.200000 -0.130109 0.065144
10.220000 -0.119492 0.063435
10.240000 -0.108568 0.062231
10.260000 -0.102325 0.067496
10.280000 -0.096759 0.061461
10.300000 -0.090338 0.067426
10.320000 -0.088646 0.065858
10.340000 -0.087543 0.071599
10.360000 -0.084635 0.065116
10.380000 -0.076830 0.065242
10.400000 -0.063713 0.066292
10.420000 -0.050786 0.068729
10.440000 -0.043443 0.065060
10.460000 -0.039520 0.071935
10.480000 -0.034906 0.065522
10.500000 -0.024270 0.067314
10.520000 -0.018749 0.071641
10.540000 -0.015369 0.067594
10.560000 -0.010722 0.070829
10.580000 0.009261 0.065494
10.600000 0.047053 0.057260
10.620000 0.113680 0.068322
10.640000 0.112729 0.065382
10.660000 0.124183 0.074470
10.680000 0.138466 0.065228
10.700000 0.149280 0.063841
10.720000 0.158538 0.066250
10.740000 0.166478 0.071221
10.760000 0.182153 0.068883
10.780000 0.194802 0.078181
10.800000 0.201696 0.073378
10.820000 0.201549 0.069401
10.840000 0.199379 0.074596
10.860000 0.200337 0.065662
10.880000 0.200222 0.067202
10.900000 0.201009 0.070171
10.920000 0.198208 0.076458
10.940000 0.193189 0.068084
10.960000 0.189316 0.068532
10.980000 0.184620 0.075170
11.000000 0.181398 0.078307
11.020000 0.170346 0.069051
11.040000 0.153378 0.074316
11.060000 0.139453 0.077061
11.080000 0.122752 0.069919
11.100000 0.106848 0.069625
11.120000 0.091573 0.072635
11.140000 0.077066 0.078293
11.160000 0.064779 0.071711
11.180000 0.052860 0.071473
11.200000 0.039196 0.070997
11.220000 0.022443 0.068462
11.240000 0.006534 0.064766
11.260000 -0.008803 0.073518
11.280000 -0.023982 0.064556
11.300000 -0.037605 0.066544
11.320000 -0.050773 0.072775
11.340000 -0.060579 0.069387
11.360000 -0.068846 0.080687
11.380000 -0.076047 0.075450
11.400000 -0.084433 0.070143
11.420000 -0.088858 0.065872
11.440000 -0.093665 0.076696
11.460000 -0.095085 0.071697
11.480000 -0.093624 0.070941
11.500000 -0.094703 0.074890
11.520000 -0.096079 0.077635
11.540000 -0.095749 0.073378
11.560000 -0.094871 0.066376
11.580000 -0.099374 0.069107
11.600000 -0.104955 0.071333
11.620000 -0.113106 0.069149
11.640000 -0.114215 0.074722
11.660000 -0.113425 0.073854
11.680000 -0.112071 0.072607
11.700000 -0.111816 0.074022
11.720000 -0.110751 0.067538
11.740000 -0.110913 0.068644
11.760000 -0.108458 0.065746
11.780000 -0.102677 0.060060
11.800000 -0.100922 0.070801
11.820000 -0.102621 0.063883
11.840000 -0.102540 0.072663
11.860000 -0.098275 0.062595
11.880000 -0.096464 0.066054
11.900000 -0.091671 0.068673
11.920000 -0.085200 0.078503
11.940000 -0.080821 0.065732
11.960000 -0.077174 0.060088
11.980000 -0.075432 0.066404
12.000000 -0.067968 0.066782
12.020000 -0.060085 0.066460
12.040000 -0.052404 0.056658
12.060000 -0.047374 0.061377
12.080000 -0.038633 0.060761
12.100000 -0.026602 0.055593
12.120000 -0.017697 0.057288
12.140000 -0.009214 0.060130
12.160000 0.003147 0.056672
12.180000 0.012806 0.066502
12.200000 0.025498 0.066642
12.220000 0.039006 0.067972
12.240000 0.055020 0.063127
12.260000 0.066338 0.058352
12.280000 0.074506 0.066628
12.300000 0.076214 0.060355
12.320000 0.079642 0.060046
12.340000 0.081912 0.063491
12.360000 0.079040 0.072201
12.380000 0.077781 0.072187
12.400000 0.075207 0.072593
12.420000 0.072053 0.067286
12.440000 0.072272 0.076542
12.460000 0.074346 0.072089
12.480000 0.076296 0.067398
12.500000 0.074494 0.063659
12.520000 0.074025 0.071109
12.540000 0.072088 0.069317
12.560000 0.073599 0.068574
12.580000 0.074080 0.063967
12.600000 0.070247 0.062119
12.620000 0.064352 0.063435
12.640000 0.056086 0.055355
12.660000 0.049926 0.070577
12.680000 0.043187 0.070115
12.700000 0.036904 0.069121
12.720000 0.034085 0.066334
12.740000 0.028259 0.069135
12.760000 0.022659 0.064752
12.780000 0.015534 0.064275
12.800000 0.012637 0.068687
12.820000 0.006992 0.060845
12.840000 0.002692 0.077271
12.860000 -0.003792 0.073490
12.880000 -0.007889 0.067902
12.900000 -0.011668 0.070353
12.920000 -0.016419 0.072523
12.940000 -0.023814 0.071221
12.960000 -0.030954 0.069471
12.980000 -0.041966 0.063085
13.000000 -0.049727 0.066894
13.020000 -0.059831 0.077509
13.040000 -0.068501 0.069499
13.060000 -0.079791 0.073658
13.080000 -0.089451 0.067524
13.100000 -0.098232 0.068154
13.120000 -0.103865 0.070661
13.140000 -0.110909 0.061517
13.160000 -0.117190 0.077229
13.180000 -0.122272 0.071893
13.200000 -0.125591 0.068743
13.220000 -0.126555 0.070199
13.240000 -0.124617 0.070633
13.260000 -0.122709 0.066096
13.280000 -0.120575 0.069359
13.300000 -0.120734 0.065620
13.320000 -0.119478 0.072271
13.340000 -0.117190 0.067748
13.360000 -0.110995 0.060523
13.380000 -0.107033 0.063785
13.400000 -0.100395 0.058926
13.420000 -0.094337 0.060074
13.440000 -0.084275 0.066684
13.460000 -0.071579 0.063015
13.480000 -0.061236 0.068785
13.500000 -0.051810 0.071165
13.520000 -0.040848 0.063995
13.540000 -0.033661 0.066264
13.560000 -0.025635 0.072383
13.580000 -0.016774 0.068014
13.600000 -0.008215 0.069219
13.620000 0.001700 0.063519
13.640000 0.008666 0.063869
13.660000 0.012148 0.066362
13.680000 0.015307 0.066138
13.700000 0.019021 0.067426
13.720000 0.021424 0.065606
13.740000 0.018530 0.064864
13.760000 0.018744 0.067454
13.780000 0.018534 0.064472
13.800000 0.021065 0.067216
13.820000 0.020737 0.070899
13.840000 0.021582 0.065690
13.860000 0.021976 0.069681
13.880000 0.021325 0.064892
13.900000 0.020826 0.071109
13.920000 0.022434 0.071487
13.940000 0.023610 0.074708
13.960000 0.023146 0.064542
13.980000 0.021604 0.071543
14.000000 0.022465 0.073784
14.020000 0.023720 0.071011
14.040000 0.025506 0.070983
14.060000 0.022797 0.067804
14.080000 0.021297 0.064261
14.100000 0.016739 0.068729
14.120000 0.015615 0.059206
14.140000 0.017888 0.068574
14.160000 0.016220 0.070423
14.180000 0.013533 0.062833
14.200000 0.014863 0.062119
14.220000 0.013402 0.065830
14.240000 0.013213 0.066754
14.260000 0.012366 0.060901
14.280000 0.008862 0.058310
14.300000 0.007566 0.069499
14.320000 0.006244 0.065872
