0 Deg Regular Run 7 2018-04-12
Time(s) Response(deg) LoadCell(N)
0.000000 -0.013809 -2.028306
0.020000 -0.011965 -2.024651
0.040000 -0.010452 -2.030462
0.060000 -0.009246 -2.029776
0.080000 -0.008328 -2.029482
0.100000 -0.007675 -2.021458
0.120000 -0.007268 -2.031736
0.140000 -0.007083 -2.029706
0.160000 -0.007101 -2.026149
0.180000 -0.007300 -2.024651
0.200000 -0.007658 -2.029104
0.220000 -0.008155 -2.028320
0.240000 -0.008769 -2.035741
0.260000 -0.009480 -2.035111
0.280000 -0.010265 -2.032605
0.300000 -0.011104 -2.032016
0.320000 -0.011975 -2.030140
0.340000 -0.012858 -2.029986
0.360000 -0.013731 -2.032325
0.380000 -0.014572 -2.026331
0.400000 -0.015361 -2.027633
0.420000 -0.014934 -2.034327
0.440000 -0.015107 -2.038416
0.460000 -0.015358 -2.032423
0.480000 -0.014378 -2.020324
0.500000 -0.014372 -2.031862
0.520000 -0.014476 -2.033557
0.540000 -0.014292 -2.029062
0.560000 -0.013682 -2.023726
0.580000 -0.014078 -2.029076
0.600000 -0.015023 -2.026611
0.620000 -0.014491 -2.032142
0.640000 -0.013681 -2.025589
0.660000 -0.011920 -2.030014
0.680000 -0.009980 -2.029552
0.700000 -0.009223 -2.036077
0.720000 -0.008442 -2.029776
0.740000 -0.007596 -2.034719
0.760000 -0.006386 -2.038066
0.780000 -0.006084 -2.023278
0.800000 -0.005317 -2.031694
0.820000 -0.004942 -2.030644
0.840000 -0.006381 -2.031008
0.860000 -0.007259 -2.029566
0.880000 -0.009657 -2.037968
0.900000 -0.010267 -2.037408
0.920000 -0.010641 -2.030854
0.940000 -0.011143 -2.037198
0.960000 -0.012067 -2.038850
0.980000 -0.013868 -2.035965
1.000000 -0.014536 -2.034677
1.020000 -0.015921 -2.030224
1.040000 -0.015794 -2.028670
1.060000 -0.017016 -2.025295
1.080000 -0.016542 -2.021500
1.100000 -0.015124 -2.029062
1.120000 -0.014020 -2.021584
1.140000 -0.013360 -2.028348
1.160000 -0.012348 -2.030434
1.180000 -0.011793 -2.030784
1.200000 -0.011403 -2.025099
1.220000 -0.010519 -2.033487
1.240000 -0.010825 -2.033907
1.260000 -0.011324 -2.034285
1.280000 -0.010726 -2.025449
1.300000 -0.011271 -2.020744
1.320000 -0.011508 -2.021262
1.340000 -0.010988 -2.030714
1.360000 -0.010049 -2.033809
1.380000 -0.011424 -2.033431
1.400000 -0.009865 -2.031204
1.420000 -0.008001 -2.032198
1.440000 -0.007761 -2.032535
1.460000 -0.006106 -2.037534
1.480000 -0.005744 -2.032577
1.500000 -0.005977 -2.027731
1.520000 -0.006950 -2.022438
1.540000 -0.007766 -2.025799
1.560000 -0.008822 -2.029104
1.580000 -0.009195 -2.034019
1.600000 -0.010250 -2.030966
1.620000 -0.012028 -2.028586
1.640000 -0.014222 -2.027983
1.660000 -0.015062 -2.026863
1.680000 -0.017079 -2.025547
1.700000 -0.017897 -2.024049
1.720000 -0.019421 -2.030994
1.740000 -0.022100 -2.025057
1.760000 -0.024540 -2.031050
1.780000 -0.026786 -2.032703
1.800000 -0.028824 -2.027745
1.820000 -0.032064 -2.028039
1.840000 -0.034990 -2.036596
1.860000 -0.038298 -2.024161
1.880000 -0.040368 -2.029538
1.900000 -0.043198 -2.020520
1.920000 -0.047015 -2.031624
1.940000 -0.049833 -2.030742
1.960000 -0.052254 -2.030294
1.980000 -0.055641 -2.022690
2.000000 -0.058659 -2.036946
2.020000 -0.059726 -2.023432
2.040000 -0.061867 -2.024651
2.060000 -0.064602 -2.022060
2.080000 -0.066759 -2.029916
2.100000 -0.069255 -2.020576
2.120000 -0.071018 -2.027003
2.140000 -0.072313 -2.021360
2.160000 -0.073817 -2.024483
2.180000 -0.075784 -2.027801
2.200000 -0.076970 -2.025701
2.220000 -0.079377 -2.023306
2.240000 -0.080638 -2.025911
2.260000 -0.081657 -2.025673
2.280000 -0.083127 -2.026485
2.300000 -0.084472 -2.033221
2.320000 -0.085679 -2.027269
2.340000 -0.086639 -2.028054
2.360000 -0.086580 -2.027731
2.380000 -0.086335 -2.019301
2.400000 -0.086494 -2.027773
2.420000 -0.086808 -2.030504
2.440000 -0.086842 -2.025169
2.460000 -0.087460 -2.026177
2.480000 -0.088443 -2.027633
2.500000 -0.087716 -2.029524
2.520000 -0.087435 -2.030812
2.540000 -0.087656 -2.025379
2.560000 -0.088033 -2.030070
2.580000 -0.089235 -2.028124
2.600000 -0.090164 -2.027409
2.620000 -0.091336 -2.027493
2.640000 -0.092037 -2.023909
2.660000 -0.092328 -2.024399
2.680000 -0.092234 -2.023474
2.700000 -0.092351 -2.018069
2.720000 -0.093771 -2.020058
2.740000 -0.095838 -2.027675
2.760000 -0.095881 -2.016963
2.780000 -0.097081 -2.026401
2.800000 -0.096739 -2.027927
2.820000 -0.097818 -2.020744
2.840000 -0.100254 -2.023334
2.860000 -0.102630 -2.019693
2.880000 -0.104764 -2.023376
2.900000 -0.106789 -2.019679
2.920000 -0.108727 -2.021094
2.940000 -0.110098 -2.023446
2.960000 -0.111335 -2.029762
2.980000 -0.113290 -2.032072
3.000000 -0.115224 -2.025561
3.020000 -0.115088 -2.018545
3.040000 -0.115474 -2.020156
3.060000 -0.117046 -2.028138
3.080000 -0.117512 -2.026667
3.100000 -0.118399 -2.021514
3.120000 -0.119873 -2.022340
3.140000 -0.119758 -2.014890
3.160000 -0.119985 -2.024483
3.180000 -0.119179 -2.022186
3.200000 -0.118290 -2.018713
3.220000 -0.117793 -2.020982
3.240000 -0.116433 -2.029132
3.260000 -0.115139 -2.032058
3.280000 -0.112894 -2.028222
3.300000 -0.110068 -2.021220
3.320000 -0.109198 -2.019427
3.340000 -0.107775 -2.026975
3.360000 -0.106522 -2.024763
3.380000 -0.105983 -2.028208
3.400000 -0.105709 -2.024903
3.420000 -0.106131 -2.022452
3.440000 -0.106007 -2.026681
3.460000 -0.105414 -2.033305
3.480000 -0.103956 -2.026023
3.500000 -0.102580 -2.027493
3.520000 -0.101484 -2.020674
3.540000 -0.099310 -2.025043
3.560000 -0.095554 -2.022872
3.580000 -0.092913 -2.021542
3.600000 -0.088599 -2.017635
3.620000 -0.085947 -2.023628
3.640000 -0.082971 -2.030504
3.660000 -0.079659 -2.023390
3.680000 -0.076699 -2.021556
3.700000 -0.071639 -2.023292
3.720000 -0.066903 -2.025169
3.740000 -0.061256 -2.036498
3.760000 -0.056123 -2.028025
3.780000 -0.051457 -2.025309
3.800000 -0.046982 -2.024133
3.820000 -0.041268 -2.023390
3.840000 -0.035770 -2.026989
3.860000 -0.028120 -2.031176
3.880000 -0.021251 -2.019778
3.900000 -0.014642 -2.022046
3.920000 -0.007132 -2.027185
3.940000 -0.000319 -2.023880
3.960000 0.005656 -2.028894
3.980000 0.014438 -2.020394
4.000000 0.023110 -2.014792
4.020000 0.030275 -2.021066
4.040000 0.038057 -2.025995
4.060000 0.045171 -2.024441
4.080000 0.053201 -2.027773
4.100000 0.061057 -2.024903
4.120000 0.069530 -2.020758
4.140000 0.077757 -2.026471
4.160000 0.085569 -2.029496
4.180000 0.093077 -2.019357
4.200000 0.099787 -2.016207
4.220000 0.107542 -2.022956
4.240000 0.117317 -2.025533
4.260000 0.126446 -2.033193
4.280000 0.134824 -2.028082
4.300000 0.142520 -2.025673
4.320000 0.150505 -2.027619
4.340000 0.157556 -2.019988
4.360000 0.165233 -2.026513
4.380000 0.173536 -2.029370
4.400000 0.182475 -2.029664
4.420000 0.190804 -2.023895
4.440000 0.200428 -2.021780
4.460000 0.209577 -2.019021
4.480000 0.219762 -2.022060
4.500000 0.229612 -2.021934
4.520000 0.238899 -2.025967
4.540000 0.248102 -2.021374
4.560000 0.257864 -2.022214
4.580000 0.266850 -2.020394
4.600000 0.276213 -2.028152
4.620000 0.286714 -2.022340
4.640000 0.295539 -2.024567
4.660000 0.305243 -2.015114
4.680000 0.313191 -2.020254
4.700000 0.319577 -2.018111
4.720000 0.324934 -2.021234
4.740000 0.330885 -2.027297
4.760000 0.336811 -2.027367
4.780000 0.343372 -2.023544
4.800000 0.348358 -2.024273
4.820000 0.352477 -2.019357
4.840000 0.358077 -2.026583
4.860000 0.363279 -2.030140
4.880000 0.370268 -2.028460
4.900000 0.375852 -2.025169
4.920000 0.381356 -2.029790
4.940000 0.384566 -2.017075
4.960000 0.387931 -2.025281
4.980000 0.389609 -2.028544
5.000000 0.389185 -2.021332
5.020000 0.389048 -2.021556
5.040000 0.386928 -2.026275
5.060000 0.384288 -2.025001
5.080000 0.380476 -2.025351
5.100000 0.376038 -2.021458
5.120000 0.373110 -2.025169
5.140000 0.368739 -2.026191
5.160000 0.364789 -2.025799
5.180000 0.362021 -2.015114
5.200000 0.357114 -2.028908
5.220000 0.351422 -2.024077
5.240000 0.344077 -2.023278
5.260000 0.335674 -2.027619
5.280000 0.328342 -2.028138
5.300000 0.319115 -2.012230
5.320000 0.310216 -2.028376
5.340000 0.298823 -2.020646
5.360000 0.286697 -2.022046
5.380000 0.271981 -2.023712
5.400000 0.256483 -2.022424
5.420000 0.240014 -2.025323
5.440000 0.224121 -2.025365
5.460000 0.205851 -2.027283
5.480000 0.183710 -2.019259
5.500000 0.161987 -2.023320
5.520000 0.141677 -2.028894
5.540000 0.118252 -2.016725
5.560000 0.091436 -2.012580
5.580000 0.065856 -2.011698
5.600000 0.041095 -2.015591
5.620000 0.015726 -2.022998
5.640000 -0.012110 -2.026555
5.660000 -0.040270 -2.025799
5.680000 -0.066840 -2.026471
5.700000 -0.093825 -2.027885
5.720000 -0.122087 -2.027829
5.740000 -0.153026 -2.027017
5.760000 -0.185772 -2.029020
5.780000 -0.217975 -2.025043
5.800000 -0.248449 -2.022354
5.820000 -0.279804 -2.029216
5.840000 -0.312284 -2.026765
5.860000 -0.343264 -2.030672
5.880000 -0.377085 -2.026093
5.900000 -0.409967 -2.022522
5.920000 -0.441633 -2.024791
5.940000 -0.473389 -2.020954
5.960000 -0.503159 -2.021864
5.980000 -0.532555 -2.019609
6.000000 -0.561690 -2.016515
6.020000 -0.588165 -2.024007
6.040000 -0.614277 -2.018797
6.060000 -0.639974 -2.026457
6.080000 -0.665503 -2.019539
6.100000 -0.691846 -2.026821
6.120000 -0.717585 -2.020478
6.140000 -0.742338 -2.022494
6.160000 -0.764813 -2.017313
6.180000 -0.785314 -2.023909
6.200000 -0.803440 -2.022354
6.220000 -0.819369 -2.034649
6.240000 -0.835662 -2.024637
6.260000 -0.852884 -2.024959
6.280000 -0.864167 -2.025491
6.300000 -0.872708 -2.026919
6.320000 -0.884507 -2.032325
6.340000 -0.896747 -2.027479
6.360000 -0.903580 -2.026163
6.380000 -0.907361 -2.020198
6.400000 -0.910983 -2.030056
6.420000 -0.910689 -2.024049
6.440000 -0.909920 -2.027395
6.460000 -0.906535 -2.025295
6.480000 -0.896607 -2.022004
6.500000 -0.887886 -2.020058
6.520000 -0.880488 -2.025085
6.540000 -0.871085 -2.023012
6.560000 -0.857363 -2.021598
6.580000 -0.840474 -2.024791
6.600000 -0.821151 -2.024595
6.620000 -0.801140 -2.019764
6.640000 -0.777485 -2.029538
6.660000 -0.751783 -2.020730
6.680000 -0.721741 -2.034159
6.700000 -0.688977 -2.026275
6.720000 -0.653450 -2.028936
6.740000 -0.615685 -2.029034
6.760000 -0.575840 -2.017327
6.780000 -0.536045 -2.027983
6.800000 -0.493038 -2.024847
6.820000 -0.448657 -2.029790
6.840000 -0.404439 -2.034033
6.860000 -0.355553 -2.022998
6.880000 -0.305402 -2.027689
6.900000 -0.253719 -2.024595
6.920000 -0.199376 -2.026387
6.940000 -0.143192 -2.026093
6.960000 -0.086206 -2.023614
6.980000 -0.027475 -2.020100
7.000000 0.032313 -2.022802
7.020000 0.090663 -2.020702
7.040000 0.149072 -2.016375
7.060000 0.211826 -2.017859
7.080000 0.275877 -2.032521
7.100000 0.335442 -2.022634
7.120000 0.394964 -2.024161
7.140000 0.457092 -2.026723
7.160000 0.518852 -2.027969
7.180000 0.579257 -2.028628
7.200000 0.638949 -2.026905
7.220000 0.700668 -2.025323
7.240000 0.757193 -2.027997
7.260000 0.813611 -2.023446
7.280000 0.869837 -2.016571
7.300000 0.919856 -2.020548
7.320000 0.971019 -2.023376
7.340000 1.020158 -2.031778
7.360000 1.066642 -2.027465
7.380000 1.109011 -2.027773
7.400000 1.152806 -2.028740
7.420000 1.192776 -2.024861
7.440000 1.230869 -2.027129
7.460000 1.263527 -2.028404
7.480000 1.293717 -2.025631
7.500000 1.316628 -2.026877
7.520000 1.337509 -2.025841
7.540000 1.350788 -2.025813
7.560000 1.362632 -2.027675
7.580000 1.367490 -2.025631
7.600000 1.371811 -2.024035
7.620000 1.372130 -2.022046
7.640000 1.366246 -2.018461
7.660000 1.358066 -2.023460
7.680000 1.341862 -2.017649
7.700000 1.320488 -2.023824
7.720000 1.296444 -2.029468
7.740000 1.266222 -2.021570
7.760000 1.233198 -2.013770
7.780000 1.193680 -2.015534
7.800000 1.150356 -2.020114
7.820000 1.103567 -2.019525
7.840000 1.053944 -2.015815
7.860000 0.999305 -2.021542
7.880000 0.936167 -2.026107
7.900000 0.869048 -2.024679
7.920000 0.801642 -2.024287
7.940000 0.730707 -2.017229
7.960000 0.654161 -2.024147
7.980000 0.572142 -2.025155
8.000000 0.488272 -2.029468
8.020000 0.400784 -2.022382
8.040000 0.309664 -2.029314
8.060000 0.217413 -2.025533
8.080000 0.122447 -2.023334
8.100000 0.027476 -2.024133
8.120000 -0.071405 -2.026821
8.140000 -0.174026 -2.032086
8.160000 -0.277293 -2.028446
8.180000 -0.379671 -2.028978
8.200000 -0.481296 -2.039830
8.220000 -0.586047 -2.029538
8.240000 -0.690921 -2.022060
8.260000 -0.796596 -2.021906
8.280000 -0.899558 -2.023292
8.300000 -1.002200 -2.026513
8.320000 -1.102098 -2.030714
8.340000 -1.201001 -2.021486
8.360000 -1.292958 -2.025407
8.380000 -1.382750 -2.025813
8.400000 -1.465670 -2.028474
8.420000 -1.548714 -2.034663
8.440000 -1.628706 -2.022536
8.460000 -1.703132 -2.021472
8.480000 -1.770756 -2.022172
8.500000 -1.835892 -2.023348
8.520000 -1.892752 -2.024385
8.540000 -1.946916 -2.015492
8.560000 -1.994815 -2.018937
8.580000 -2.034814 -2.022116
8.600000 -2.065960 -2.027353
8.620000 -2.092953 -2.022172
8.640000 -2.115234 -2.031274
8.660000 -2.132881 -2.032913
8.680000 -2.141910 -2.026457
8.700000 -2.139554 -2.027913
8.720000 -2.129446 -2.024441
8.740000 -2.115295 -2.024007
8.760000 -2.094844 -2.024651
8.780000 -2.067319 -2.012846
8.800000 -2.031024 -2.014092
8.820000 -1.988875 -2.024147
8.840000 -1.938867 -2.022326
8.860000 -1.881163 -2.020240
8.880000 -1.818607 -2.025155
8.900000 -1.750791 -2.028880
8.920000 -1.679384 -2.028222
8.940000 -1.598279 -2.025589
8.960000 -1.511562 -2.021570
8.980000 -1.420056 -2.025491
9.000000 -1.325305 -2.022340
9.020000 -1.225198 -2.020464
9.040000 -1.119410 -2.019988
9.060000 -1.009400 -2.018797
9.080000 -0.894277 -2.021178
9.100000 -0.777304 -2.022494
9.120000 -0.656519 -2.015591
9.140000 -0.529917 -2.020240
9.160000 -0.400870 -2.017047
9.180000 -0.271787 -2.023138
9.200000 -0.141861 -2.016613
9.220000 -0.012995 -2.016389
9.240000 0.119148 -2.020478
9.260000 0.251223 -2.027647
9.280000 0.385641 -2.027059
9.300000 0.515427 -2.033431
9.320000 0.647612 -2.019049
9.340000 0.776597 -2.022676
9.360000 0.906269 -2.024119
9.380000 1.034688 -2.023334
9.400000 1.157551 -2.016179
9.420000 1.276693 -2.020492
9.440000 1.393249 -2.024693
9.460000 1.505590 -2.024623
9.480000 1.615433 -2.022424
9.500000 1.721518 -2.018853
9.520000 1.819903 -2.022004
9.540000 1.914051 -2.027157
9.560000 2.003031 -2.023726
9.580000 2.085747 -2.022228
9.600000 2.160511 -2.015492
9.620000 2.231241 -2.020660
9.640000 2.295434 -2.022200
9.660000 2.350607 -2.020436
9.680000 2.398305 -2.027269
9.700000 2.439424 -2.030224
9.720000 2.474919 -2.027871
9.740000 2.501938 -2.024343
9.760000 2.518235 -2.029006
9.780000 2.526381 -2.026485
9.800000 2.527726 -2.024861
9.820000 2.520742 -2.026289
9.840000 2.502835 -2.031120
9.860000 2.478585 -2.027451
9.880000 2.449908 -2.018335
9.900000 2.411637 -2.023684
9.920000 2.365173 -2.022424
9.940000 2.310417 -2.027759
9.960000 2.246008 -2.017873
9.980000 2.175973 -2.019133
10.000000 2.099793 -2.021192
10.020000 2.013912 -2.018447
10.040000 1.922225 -2.022844
10.060000 1.822506 -2.025351
10.080000 1.719907 -2.024931
10.100000 1.610785 -2.028502
10.120000 1.498621 -2.024861
10.140000 1.379874 -2.018993
10.160000 1.255228 -2.019904
10.180000 1.125033 -2.017831
10.200000 0.992214 -2.030574
10.220000 0.856510 -2.027815
10.240000 0.716657 -2.028025
10.260000 0.574331 -2.026345
10.280000 0.428586 -2.024539
10.300000 0.283771 -2.034453
10.320000 0.135314 -2.030980
10.340000 -0.011275 -2.022298
10.360000 -0.161033 -2.022956
10.380000 -0.308993 -2.025253
10.400000 -0.454070 -2.023516
10.420000 -0.594534 -2.029468
10.440000 -0.735946 -2.030224
10.460000 -0.875100 -2.031680
10.480000 -1.009457 -2.034383
10.500000 -1.140394 -2.037814
10.520000 -1.270045 -2.035111
10.540000 -1.396018 -2.030154
10.560000 -1.514377 -2.032255
10.580000 -1.626015 -2.021444
10.600000 -1.731891 -2.028460
10.620000 -1.832712 -2.033627
10.640000 -1.925218 -2.023852
10.660000 -2.007133 -2.032969
10.680000 -2.084364 -2.027885
10.700000 -2.155451 -2.024707
10.720000 -2.219265 -2.027101
10.740000 -2.275472 -2.024049
10.760000 -2.320232 -2.032465
10.780000 -2.356363 -2.025673
10.800000 -2.385148 -2.027941
10.820000 -2.405725 -2.025575
10.840000 -2.416594 -2.031092
10.860000 -2.417172 -2.028950
10.880000 -2.406195 -2.027591
10.900000 -2.389036 -2.024539
10.920000 -2.362491 -2.029132
10.940000 -2.332064 -2.029986
10.960000 -2.293060 -2.019623
10.980000 -2.243853 -2.026779
11.000000 -2.186070 -2.015058
11.020000 -2.119799 -2.019021
11.040000 -2.048568 -2.026737
11.060000 -1.971572 -2.027521
11.080000 -1.887116 -2.019385
11.100000 -1.793409 -2.025701
11.120000 -1.694520 -2.022522
11.140000 -1.589310 -2.016347
11.160000 -1.477724 -2.030028
11.180000 -1.358835 -2.019497
11.200000 -1.235707 -2.025869
11.220000 -1.109881 -2.019623
11.240000 -0.982264 -2.019665
11.260000 -0.851178 -2.022242
11.280000 -0.716091 -2.025267
11.300000 -0.577331 -2.027885
11.320000 -0.437462 -2.015380
11.340000 -0.293307 -2.021808
11.360000 -0.146372 -2.024357
11.380000 -0.001567 -2.031946
11.400000 0.144218 -2.029076
11.420000 0.288930 -2.025071
11.440000 0.433803 -2.033165
11.460000 0.576520 -2.027675
11.480000 0.717096 -2.026471
11.500000 0.857904 -2.029720
11.520000 0.994122 -2.027997
11.540000 1.127859 -2.027549
11.560000 1.260304 -2.031554
11.580000 1.386944 -2.026583
11.600000 1.510886 -2.019736
11.620000 1.627849 -2.023838
11.640000 1.739844 -2.027101
11.660000 1.847426 -2.028656
11.680000 1.948501 -2.028670
11.700000 2.041839 -2.024007
11.720000 2.129029 -2.024413
11.740000 2.207283 -2.027171
11.760000 2.280990 -2.025939
11.780000 2.345961 -2.031736
11.800000 2.403538 -2.027731
11.820000 2.453504 -2.025771
11.840000 2.495587 -2.030672
11.860000 2.529709 -2.025267
11.880000 2.556470 -2.034607
11.900000 2.573654 -2.034845
11.920000 2.581132 -2.030266
11.940000 2.581267 -2.025323
11.960000 2.575188 -2.030826
11.980000 2.559278 -2.030994
12.000000 2.533867 -2.026583
12.020000 2.499896 -2.025883
12.040000 2.457049 -2.024525
12.060000 2.408308 -2.026863
12.080000 2.354389 -2.018601
12.100000 2.292038 -2.029622
12.120000 2.219639 -2.030140
12.140000 2.141811 -2.032829
12.160000 2.057274 -2.028039
12.180000 1.966228 -2.030938
12.200000 1.871598 -2.027199
12.220000 1.768979 -2.024525
12.240000 1.662405 -2.023726
12.260000 1.550172 -2.028138
12.280000 1.432499 -2.028978
12.300000 1.309920 -2.025155
12.320000 1.181188 -2.028250
12.340000 1.049977 -2.024777
12.360000 0.916563 -2.024007
12.380000 0.778692 -2.023068
12.400000 0.638433 -2.026499
12.420000 0.494818 -2.020940
12.440000 0.351494 -2.024973
12.460000 0.206101 -2.026191
12.480000 0.060151 -2.027031
12.500000 -0.085725 -2.023656
12.520000 -0.229916 -2.015240
12.540000 -0.374500 -2.024035
12.560000 -0.516768 -2.028838
12.580000 -0.658201 -2.022130
12.600000 -0.797207 -2.025001
12.620000 -0.933984 -2.028964
12.640000 -1.067551 -2.023923
12.660000 -1.200464 -2.021962
12.680000 -1.328892 -2.024959
12.700000 -1.451744 -2.022998
12.720000 -1.567846 -2.026541
12.740000 -1.680132 -2.031890
12.760000 -1.790531 -2.029272
12.780000 -1.894921 -2.023180
12.800000 -1.994148 -2.025169
12.820000 -2.086544 -2.017971
12.840000 -2.170653 -2.022774
12.860000 -2.246189 -2.020562
12.880000 -2.315294 -2.027269
12.900000 -2.377336 -2.026765
12.920000 -2.432408 -2.028138
12.940000 -2.476389 -2.018895
12.960000 -2.515696 -2.019035
12.980000 -2.546177 -2.024595
13.000000 -2.570978 -2.022914
13.020000 -2.589065 -2.026387
13.040000 -2.595294 -2.024441
13.060000 -2.596402 -2.022382
13.080000 -2.590160 -2.026289
13.100000 -2.576870 -2.023418
13.120000 -2.554836 -2.022942
13.140000 -2.523288 -2.028348
13.160000 -2.484820 -2.017915
13.180000 -2.438821 -2.027255
13.200000 -2.385787 -2.030518
13.220000 -2.322593 -2.023586
13.240000 -2.253798 -2.028222
13.260000 -2.177765 -2.022956
13.280000 -2.095470 -2.022774
13.300000 -2.006644 -2.010941
13.320000 -1.913655 -2.027899
13.340000 -1.816953 -2.030756
13.360000 -1.713282 -2.027661
13.380000 -1.605945 -2.026163
13.400000 -1.494254 -2.025883
13.420000 -1.378486 -2.023096
13.440000 -1.257715 -2.027857
13.460000 -1.134792 -2.027087
13.480000 -1.005761 -2.023979
13.500000 -0.874588 -2.029944
13.520000 -0.744101 -2.025841
13.540000 -0.615394 -2.028572
13.560000 -0.480223 -2.027997
13.580000 -0.343549 -2.023222
13.600000 -0.207719 -2.028236
13.620000 -0.070090 -2.034243
13.640000 0.066587 -2.024917
13.660000 0.203829 -2.018993
13.680000 0.340353 -2.019736
13.700000 0.474388 -2.018181
13.720000 0.606002 -2.018531
13.740000 0.735300 -2.022116
13.760000 0.860724 -2.025225
